Wavelength,Extinction,Scattering,Absorbtion
4.00000e+02,2.41256e-14,9.21550e-15,1.49101e-14
4.06000e+02,2.41543e-14,9.11461e-15,1.50396e-14
4.12000e+02,2.41523e-14,8.98589e-15,1.51665e-14
4.18000e+02,2.41230e-14,8.83476e-15,1.52883e-14
4.24000e+02,2.40544e-14,8.65089e-15,1.54036e-14
4.30000e+02,2.39572e-14,8.44203e-15,1.55152e-14
4.36000e+02,2.38539e-14,8.22458e-15,1.56293e-14
4.42000e+02,2.37461e-14,7.99575e-15,1.57503e-14
4.48000e+02,2.36448e-14,7.76318e-15,1.58817e-14
4.54000e+02,2.35680e-14,7.54499e-15,1.60230e-14
4.60000e+02,2.35210e-14,7.35042e-15,1.61706e-14
4.66000e+02,2.34830e-14,7.17169e-15,1.63113e-14
4.72000e+02,2.35368e-14,7.05939e-15,1.64774e-14
4.78000e+02,2.37793e-14,7.07838e-15,1.67010e-14
4.84000e+02,2.43546e-14,7.33192e-15,1.70227e-14
4.90000e+02,2.52062e-14,7.79860e-15,1.74076e-14
4.96000e+02,2.61304e-14,8.33678e-15,1.77937e-14
5.02000e+02,2.73555e-14,9.10787e-15,1.82477e-14
5.08000e+02,2.89174e-14,1.01539e-14,1.87635e-14
5.14000e+02,3.08478e-14,1.15279e-14,1.93199e-14
5.20000e+02,3.31318e-14,1.32591e-14,1.98727e-14
5.26000e+02,3.58846e-14,1.54839e-14,2.04007e-14
5.32000e+02,3.89371e-14,1.81076e-14,2.08295e-14
5.38000e+02,4.22037e-14,2.10616e-14,2.11421e-14
5.44000e+02,4.55626e-14,2.42442e-14,2.13184e-14
5.50000e+02,4.87583e-14,2.74532e-14,2.13051e-14
5.56000e+02,5.15582e-14,3.05140e-14,2.10442e-14
5.62000e+02,5.37172e-14,3.32413e-14,2.04759e-14
5.68000e+02,5.49539e-14,3.53899e-14,1.95640e-14
5.74000e+02,5.50794e-14,3.67597e-14,1.83197e-14
5.80000e+02,5.40579e-14,3.72457e-14,1.68121e-14
5.86000e+02,5.18887e-14,3.67782e-14,1.51105e-14
5.92000e+02,4.88685e-14,3.55248e-14,1.33437e-14
5.98000e+02,4.54061e-14,3.37652e-14,1.16409e-14
6.04000e+02,4.17712e-14,3.17036e-14,1.00676e-14
6.10000e+02,3.81679e-14,2.95087e-14,8.65911e-15
6.16000e+02,3.47314e-14,2.73048e-14,7.42658e-15
6.22000e+02,3.15941e-14,2.52685e-14,6.32560e-15
6.28000e+02,2.87302e-14,2.33432e-14,5.38702e-15
6.34000e+02,2.61279e-14,2.15303e-14,4.59762e-15
6.40000e+02,2.37855e-14,1.98481e-14,3.93743e-15
6.46000e+02,2.16952e-14,1.83058e-14,3.38943e-15
6.52000e+02,1.98345e-14,1.68998e-14,2.93475e-15
6.58000e+02,1.81754e-14,1.56196e-14,2.55586e-15
6.64000e+02,1.67181e-14,1.44501e-14,2.26806e-15
6.70000e+02,1.54292e-14,1.33903e-14,2.03891e-15
6.76000e+02,1.42723e-14,1.24277e-14,1.84454e-15
6.82000e+02,1.32350e-14,1.15549e-14,1.68009e-15
6.88000e+02,1.23050e-14,1.07639e-14,1.54114e-15
6.94000e+02,1.14668e-14,1.00440e-14,1.42283e-15
7.00000e+02,1.07095e-14,9.38766e-15,1.32188e-15
7.06000e+02,1.00236e-14,8.78842e-15,1.23523e-15
7.12000e+02,9.40038e-15,8.24212e-15,1.15826e-15
7.18000e+02,8.83064e-15,7.74136e-15,1.08929e-15
7.24000e+02,8.30761e-15,7.28057e-15,1.02705e-15
7.30000e+02,7.82751e-15,6.85659e-15,9.70925e-16
7.36000e+02,7.38499e-15,6.46500e-15,9.19987e-16
7.42000e+02,6.97735e-15,6.10352e-15,8.73826e-16
7.48000e+02,6.60109e-15,5.76922e-15,8.31870e-16
7.54000e+02,6.25302e-15,5.45941e-15,7.93605e-16
7.60000e+02,5.93180e-15,5.17180e-15,7.60005e-16
7.66000e+02,5.63362e-15,4.90427e-15,7.29354e-16
7.72000e+02,5.35564e-15,4.65530e-15,7.00338e-16
7.78000e+02,5.09597e-15,4.42314e-15,6.72827e-16
7.84000e+02,4.85317e-15,4.20644e-15,6.46733e-16
7.90000e+02,4.62582e-15,4.00385e-15,6.21967e-16
7.96000e+02,4.41265e-15,3.81421e-15,5.98438e-16
8.02000e+02,4.21299e-15,3.63682e-15,5.76168e-16
8.08000e+02,4.02486e-15,3.46999e-15,5.54873e-16
8.14000e+02,3.84873e-15,3.31392e-15,5.34806e-16
8.20000e+02,3.68238e-15,3.16679e-15,5.15584e-16
8.26000e+02,3.52174e-15,3.02800e-15,4.93742e-16
8.32000e+02,3.36938e-15,2.89711e-15,4.72267e-16
8.38000e+02,3.22672e-15,2.77403e-15,4.52689e-16
8.44000e+02,3.09256e-15,2.65788e-15,4.34678e-16
8.50000e+02,2.96663e-15,2.54843e-15,4.18204e-16
8.56000e+02,2.84794e-15,2.44494e-15,4.03004e-16
8.62000e+02,2.73624e-15,2.34719e-15,3.89047e-16
8.68000e+02,2.63071e-15,2.25458e-15,3.76132e-16
8.74000e+02,2.53118e-15,2.16695e-15,3.64235e-16
8.80000e+02,2.43716e-15,2.08391e-15,3.53248e-16
8.86000e+02,2.34828e-15,2.00519e-15,3.43097e-16
8.92000e+02,2.26401e-15,1.93035e-15,3.33666e-16
8.98000e+02,2.18770e-15,1.85991e-15,3.27795e-16
9.04000e+02,2.11524e-15,1.79279e-15,3.22457e-16
9.10000e+02,2.04627e-15,1.72896e-15,3.17312e-16
9.16000e+02,1.98030e-15,1.66798e-15,3.12315e-16
9.22000e+02,1.91730e-15,1.60982e-15,3.07478e-16
9.28000e+02,1.85708e-15,1.55429e-15,3.02790e-16
9.34000e+02,1.79952e-15,1.50127e-15,2.98248e-16
9.40000e+02,1.74445e-15,1.45060e-15,2.93842e-16
9.46000e+02,1.69163e-15,1.40207e-15,2.89554e-16
9.52000e+02,1.64113e-15,1.35573e-15,2.85404e-16
9.58000e+02,1.59267e-15,1.31131e-15,2.81362e-16
9.64000e+02,1.54628e-15,1.26884e-15,2.77446e-16
9.70000e+02,1.50172e-15,1.22809e-15,2.73628e-16
9.76000e+02,1.45902e-15,1.18910e-15,2.69925e-16
9.82000e+02,1.41804e-15,1.15171e-15,2.66325e-16
9.88000e+02,1.37790e-15,1.11570e-15,2.62207e-16
9.94000e+02,1.33893e-15,1.08114e-15,2.57790e-16
1.00000e+03,1.30150e-15,1.04796e-15,2.53540e-16
