Wavelength,Extinction,Scattering,Absorbtion
4.00000e+02,1.40955e-14,4.35280e-15,9.74272e-15
4.06000e+02,1.40891e-14,4.27852e-15,9.81058e-15
4.12000e+02,1.40605e-14,4.19018e-15,9.87032e-15
4.18000e+02,1.40131e-14,4.09118e-15,9.92197e-15
4.24000e+02,1.39381e-14,3.97640e-15,9.96173e-15
4.30000e+02,1.38430e-14,3.85107e-15,9.99197e-15
4.36000e+02,1.37435e-14,3.72483e-15,1.00187e-14
4.42000e+02,1.36378e-14,3.59662e-15,1.00412e-14
4.48000e+02,1.35305e-14,3.47047e-15,1.00600e-14
4.54000e+02,1.34317e-14,3.35484e-15,1.00769e-14
4.60000e+02,1.33437e-14,3.25307e-15,1.00906e-14
4.66000e+02,1.32546e-14,3.15974e-15,1.00948e-14
4.72000e+02,1.32084e-14,3.09977e-15,1.01087e-14
4.78000e+02,1.32539e-14,3.10225e-15,1.01517e-14
4.84000e+02,1.34592e-14,3.21140e-15,1.02478e-14
4.90000e+02,1.37977e-14,3.41079e-15,1.03869e-14
4.96000e+02,1.41772e-14,3.63415e-15,1.05431e-14
5.02000e+02,1.47197e-14,3.95495e-15,1.07647e-14
5.08000e+02,1.54571e-14,4.39198e-15,1.10652e-14
5.14000e+02,1.64280e-14,4.97189e-15,1.14561e-14
5.20000e+02,1.76525e-14,5.71654e-15,1.19360e-14
5.26000e+02,1.92570e-14,6.71663e-15,1.25403e-14
5.32000e+02,2.11279e-14,7.95778e-15,1.31702e-14
5.38000e+02,2.32383e-14,9.45657e-15,1.37818e-14
5.44000e+02,2.56208e-14,1.12392e-14,1.43817e-14
5.50000e+02,2.82696e-14,1.32877e-14,1.49819e-14
5.56000e+02,3.10712e-14,1.55370e-14,1.55342e-14
5.62000e+02,3.40404e-14,1.79948e-14,1.60456e-14
5.68000e+02,3.69740e-14,2.05406e-14,1.64334e-14
5.74000e+02,3.95635e-14,2.29767e-14,1.65868e-14
5.80000e+02,4.14349e-14,2.50364e-14,1.63985e-14
5.86000e+02,4.21927e-14,2.64104e-14,1.57823e-14
5.92000e+02,4.16288e-14,2.68959e-14,1.47329e-14
5.98000e+02,3.98818e-14,2.65147e-14,1.33671e-14
6.04000e+02,3.72476e-14,2.54150e-14,1.18326e-14
6.10000e+02,3.40945e-14,2.38206e-14,1.02739e-14
6.16000e+02,3.07593e-14,2.19599e-14,8.79937e-15
6.22000e+02,2.75758e-14,2.01345e-14,7.44125e-15
6.28000e+02,2.45969e-14,1.83374e-14,6.25950e-15
6.34000e+02,2.18734e-14,1.66159e-14,5.25747e-15
6.40000e+02,1.94412e-14,1.50194e-14,4.42184e-15
6.46000e+02,1.73078e-14,1.35728e-14,3.73494e-15
6.52000e+02,1.54508e-14,1.22780e-14,3.17282e-15
6.58000e+02,1.38359e-14,1.11242e-14,2.71177e-15
6.64000e+02,1.24558e-14,1.00933e-14,2.36250e-15
6.70000e+02,1.12690e-14,9.18216e-15,2.08683e-15
6.76000e+02,1.02312e-14,8.37456e-15,1.85661e-15
6.82000e+02,9.32437e-15,7.65972e-15,1.66465e-15
6.88000e+02,8.53165e-15,7.02702e-15,1.50463e-15
6.94000e+02,7.83366e-15,6.46370e-15,1.36996e-15
7.00000e+02,7.21702e-15,5.96077e-15,1.25625e-15
7.06000e+02,6.67017e-15,5.51061e-15,1.15956e-15
7.12000e+02,6.18299e-15,5.10809e-15,1.07490e-15
7.18000e+02,5.74559e-15,4.74556e-15,1.00003e-15
7.24000e+02,5.35061e-15,4.41734e-15,9.33269e-16
7.30000e+02,4.99379e-15,4.12003e-15,8.73758e-16
7.36000e+02,4.66967e-15,3.84936e-15,8.20307e-16
7.42000e+02,4.37535e-15,3.60300e-15,7.72356e-16
7.48000e+02,4.10733e-15,3.37815e-15,7.29180e-16
7.54000e+02,3.86251e-15,3.17236e-15,6.90148e-16
7.60000e+02,3.63949e-15,2.98355e-15,6.55946e-16
7.66000e+02,3.43479e-15,2.80985e-15,6.24946e-16
7.72000e+02,3.24585e-15,2.64991e-15,5.95937e-16
7.78000e+02,3.07098e-15,2.50225e-15,5.68727e-16
7.84000e+02,2.90892e-15,2.36573e-15,5.43184e-16
7.90000e+02,2.75843e-15,2.23926e-15,5.19175e-16
7.96000e+02,2.61844e-15,2.12187e-15,4.96573e-16
8.02000e+02,2.48839e-15,2.01301e-15,4.75376e-16
8.08000e+02,2.36664e-15,1.91137e-15,4.55267e-16
8.14000e+02,2.25357e-15,1.81708e-15,4.36482e-16
8.20000e+02,2.14739e-15,1.72877e-15,4.18614e-16
8.26000e+02,2.04482e-15,1.64598e-15,3.98842e-16
8.32000e+02,1.94798e-15,1.56838e-15,3.79599e-16
8.38000e+02,1.85805e-15,1.49593e-15,3.62125e-16
8.44000e+02,1.77406e-15,1.42796e-15,3.46100e-16
8.50000e+02,1.69582e-15,1.36433e-15,3.31492e-16
8.56000e+02,1.62254e-15,1.30449e-15,3.18048e-16
8.62000e+02,1.55403e-15,1.24830e-15,3.05737e-16
8.68000e+02,1.48969e-15,1.19532e-15,2.94367e-16
8.74000e+02,1.42938e-15,1.14546e-15,2.83916e-16
8.80000e+02,1.37273e-15,1.09845e-15,2.74282e-16
8.86000e+02,1.31949e-15,1.05409e-15,2.65395e-16
8.92000e+02,1.26924e-15,1.01210e-15,2.57143e-16
8.98000e+02,1.22461e-15,9.72851e-16,2.51756e-16
9.04000e+02,1.18240e-15,9.35578e-16,2.46824e-16
9.10000e+02,1.14238e-15,9.00283e-16,2.42094e-16
9.16000e+02,1.10417e-15,8.66663e-16,2.37508e-16
9.22000e+02,1.06778e-15,8.34701e-16,2.33084e-16
9.28000e+02,1.03309e-15,8.04282e-16,2.28810e-16
9.34000e+02,1.00001e-15,7.75331e-16,2.24682e-16
9.40000e+02,9.68439e-16,7.47750e-16,2.20689e-16
9.46000e+02,9.38201e-16,7.21393e-16,2.16809e-16
9.52000e+02,9.09374e-16,6.96306e-16,2.13068e-16
9.58000e+02,8.81750e-16,6.72319e-16,2.09431e-16
9.64000e+02,8.55373e-16,6.49454e-16,2.05919e-16
9.70000e+02,8.30067e-16,6.27566e-16,2.02501e-16
9.76000e+02,8.05873e-16,6.06675e-16,1.99198e-16
9.82000e+02,7.82692e-16,5.86698e-16,1.95994e-16
9.88000e+02,7.59889e-16,5.67475e-16,1.92415e-16
9.94000e+02,7.37713e-16,5.49072e-16,1.88641e-16
1.00000e+03,7.16454e-16,5.31441e-16,1.85013e-16
