Wavelength,Extinction,Scattering,Absorbtion
4.00000e+02,1.93431e-14,6.62293e-15,1.27202e-14
4.06000e+02,1.93276e-14,6.50642e-15,1.28212e-14
4.12000e+02,1.92824e-14,6.36929e-15,1.29131e-14
4.18000e+02,1.92107e-14,6.21633e-15,1.29944e-14
4.24000e+02,1.91042e-14,6.04065e-15,1.30635e-14
4.30000e+02,1.89764e-14,5.85002e-15,1.31264e-14
4.36000e+02,1.88515e-14,5.65853e-15,1.31930e-14
4.42000e+02,1.87362e-14,5.46553e-15,1.32706e-14
4.48000e+02,1.86430e-14,5.27744e-15,1.33656e-14
4.54000e+02,1.85849e-14,5.10648e-15,1.34785e-14
4.60000e+02,1.85623e-14,4.95763e-15,1.36046e-14
4.66000e+02,1.85492e-14,4.82245e-15,1.37268e-14
4.72000e+02,1.86271e-14,4.74045e-15,1.38867e-14
4.78000e+02,1.88837e-14,4.75973e-15,1.41240e-14
4.84000e+02,1.94480e-14,4.95768e-15,1.44903e-14
4.90000e+02,2.02548e-14,5.31577e-15,1.49391e-14
4.96000e+02,2.11133e-14,5.72595e-15,1.53873e-14
5.02000e+02,2.22442e-14,6.31693e-15,1.59273e-14
5.08000e+02,2.36906e-14,7.12729e-15,1.65633e-14
5.14000e+02,2.54985e-14,8.20723e-15,1.72913e-14
5.20000e+02,2.76746e-14,9.59028e-15,1.80844e-14
5.26000e+02,3.03388e-14,1.13916e-14,1.89472e-14
5.32000e+02,3.33067e-14,1.35353e-14,1.97715e-14
5.38000e+02,3.64103e-14,1.59398e-14,2.04705e-14
5.44000e+02,3.93869e-14,1.84593e-14,2.09275e-14
5.50000e+02,4.18376e-14,2.08399e-14,2.09977e-14
5.56000e+02,4.35148e-14,2.28969e-14,2.06178e-14
5.62000e+02,4.41072e-14,2.43960e-14,1.97112e-14
5.68000e+02,4.34538e-14,2.51500e-14,1.83039e-14
5.74000e+02,4.16177e-14,2.51008e-14,1.65169e-14
5.80000e+02,3.88701e-14,2.43338e-14,1.45362e-14
5.86000e+02,3.54556e-14,2.29525e-14,1.25031e-14
5.92000e+02,3.18134e-14,2.12265e-14,1.05868e-14
5.98000e+02,2.83127e-14,1.94144e-14,8.89830e-15
6.04000e+02,2.50966e-14,1.76415e-14,7.45509e-15
6.10000e+02,2.22250e-14,1.59796e-14,6.24540e-15
6.16000e+02,1.97050e-14,1.44621e-14,5.24292e-15
6.22000e+02,1.75340e-14,1.31450e-14,4.38898e-15
6.28000e+02,1.56569e-14,1.19703e-14,3.68665e-15
6.34000e+02,1.40285e-14,1.09160e-14,3.11253e-15
6.40000e+02,1.26172e-14,9.97397e-15,2.64326e-15
6.46000e+02,1.13966e-14,9.13585e-15,2.26075e-15
6.52000e+02,1.03378e-14,8.38981e-15,1.94795e-15
6.58000e+02,9.41369e-15,7.72338e-15,1.69031e-15
6.64000e+02,8.62141e-15,7.12513e-15,1.49627e-15
6.70000e+02,7.93257e-15,6.58969e-15,1.34288e-15
6.76000e+02,7.32138e-15,6.10781e-15,1.21357e-15
6.82000e+02,6.77873e-15,5.67402e-15,1.10471e-15
6.88000e+02,6.29631e-15,5.28319e-15,1.01313e-15
6.94000e+02,5.86456e-15,4.92914e-15,9.35421e-16
7.00000e+02,5.47691e-15,4.60758e-15,8.69327e-16
7.06000e+02,5.12758e-15,4.31483e-15,8.12748e-16
7.12000e+02,4.81106e-15,4.04848e-15,7.62585e-16
7.18000e+02,4.52241e-15,3.80471e-15,7.17706e-16
7.24000e+02,4.25793e-15,3.58067e-15,6.77255e-16
7.30000e+02,4.01553e-15,3.37471e-15,6.40817e-16
7.36000e+02,3.79237e-15,3.18460e-15,6.07768e-16
7.42000e+02,3.58699e-15,3.00916e-15,5.77837e-16
7.48000e+02,3.39756e-15,2.84691e-15,5.50643e-16
7.54000e+02,3.22240e-15,2.69655e-15,5.25848e-16
7.60000e+02,3.06105e-15,2.55694e-15,5.04103e-16
7.66000e+02,2.91131e-15,2.42704e-15,4.84273e-16
7.72000e+02,2.77157e-15,2.30608e-15,4.65485e-16
7.78000e+02,2.64088e-15,2.19323e-15,4.47656e-16
7.84000e+02,2.51854e-15,2.08781e-15,4.30727e-16
7.90000e+02,2.40384e-15,1.98920e-15,4.14644e-16
7.96000e+02,2.29616e-15,1.89681e-15,3.99347e-16
8.02000e+02,2.19518e-15,1.81032e-15,3.84854e-16
8.08000e+02,2.09990e-15,1.72892e-15,3.70979e-16
8.14000e+02,2.01059e-15,1.65270e-15,3.57890e-16
8.20000e+02,1.92612e-15,1.58078e-15,3.45336e-16
8.26000e+02,1.84387e-15,1.51287e-15,3.30995e-16
8.32000e+02,1.76564e-15,1.44877e-15,3.16868e-16
8.38000e+02,1.69242e-15,1.38844e-15,3.03984e-16
8.44000e+02,1.62358e-15,1.33146e-15,2.92125e-16
8.50000e+02,1.55898e-15,1.27771e-15,2.81274e-16
8.56000e+02,1.49810e-15,1.22685e-15,2.71258e-16
8.62000e+02,1.44082e-15,1.17876e-15,2.62058e-16
8.68000e+02,1.38671e-15,1.13317e-15,2.53541e-16
8.74000e+02,1.33567e-15,1.08998e-15,2.45693e-16
8.80000e+02,1.28746e-15,1.04902e-15,2.38443e-16
8.86000e+02,1.24190e-15,1.01016e-15,2.31743e-16
8.92000e+02,1.19869e-15,9.73176e-16,2.25516e-16
8.98000e+02,1.16002e-15,9.38342e-16,2.21683e-16
9.04000e+02,1.12332e-15,9.05118e-16,2.18203e-16
9.10000e+02,1.08834e-15,8.73497e-16,2.14845e-16
9.16000e+02,1.05484e-15,8.43266e-16,2.11579e-16
9.22000e+02,1.02282e-15,8.14404e-16,2.08413e-16
9.28000e+02,9.92169e-16,7.86826e-16,2.05342e-16
9.34000e+02,9.62838e-16,7.60475e-16,2.02364e-16
9.40000e+02,9.34743e-16,7.35273e-16,1.99471e-16
9.46000e+02,9.07766e-16,7.11114e-16,1.96652e-16
9.52000e+02,8.81945e-16,6.88025e-16,1.93920e-16
9.58000e+02,8.57137e-16,6.65880e-16,1.91257e-16
9.64000e+02,8.33363e-16,6.44689e-16,1.88674e-16
9.70000e+02,8.10498e-16,6.24345e-16,1.86153e-16
9.76000e+02,7.88563e-16,6.04858e-16,1.83705e-16
9.82000e+02,7.67486e-16,5.86164e-16,1.81322e-16
9.88000e+02,7.46725e-16,5.68142e-16,1.78583e-16
9.94000e+02,7.26472e-16,5.50837e-16,1.75636e-16
1.00000e+03,7.07007e-16,5.34210e-16,1.72797e-16
